time,seconds_elapsed,relativeAltitude,pressure
1776870446899192000,-0.501807861328125,0,995.3623962402344
1776870447902183200,0.50118310546875,-0.03436279296875,995.3665161132812
1776870448905857000,1.50485693359375,-0.0687103271484375,995.3707122802734
1776870449909605000,2.508605224609375,-0.0977783203125,995.3740692138672
1776870450913454000,3.5124541015625,-0.103057861328125,995.3746032714844
1776870451917299000,4.516298828125,-0.1321258544921875,995.3779602050781
1776870452466062000,5.06506201171875,-0.2325286865234375,995.3899383544922
1776870453469823200,6.0688232421875,-0.266876220703125,995.3941345214844
1776870454473663000,7.0726630859375,-0.266876220703125,995.3941345214844
1776870455476874200,8.075874267578126,-0.2721710205078125,995.3948211669922
1776870456480386000,9.079385986328125,-0.2721710205078125,995.3948211669922
1776870457484055000,10.083054931640625,-0.2695159912109375,995.3944396972656
1776870458487934200,11.086934326171875,-0.253662109375,995.3926849365234
1776870459491401200,12.090401123046876,-0.2061004638671875,995.3870391845703
1776870460495035100,13.09403515625,-0.19818115234375,995.3858947753906
1776870461498279200,14.097279052734375,-0.1955413818359375,995.3858184814453
1776870462502168000,15.10116796875,-0.1241912841796875,995.3772735595703
1776870463506300200,16.105300048828123,-0.1109771728515625,995.3756713867188
1776870464510196200,17.1091962890625,-0.0819244384765625,995.3721618652344
1776870465513771000,18.11277099609375,-0.0687103271484375,995.3705596923828
1776870466517737200,19.1167373046875,-0.0607757568359375,995.3696441650391
1776870467522018300,20.121018310546877,-0.058135986328125,995.3692626953125
1776870468525849000,21.12484912109375,-0.0554962158203125,995.3688812255859
1776870469529758000,22.128758056640624,-0.0554962158203125,995.3688812255859
1776870470533660200,23.13266015625,-0.0528564453125,995.3685760498047
1776870471537566200,24.136566162109375,-0.076629638671875,995.3714752197266
1776870472541246200,25.14024609375,-0.076629638671875,995.3714752197266
1776870473545137200,26.14413720703125,-0.076629638671875,995.3715515136719
1776870474549311200,27.148311279296873,-0.08984375,995.3733062744141
1776870475552277000,28.151277099609374,-0.1268310546875,995.3774261474609
1776870476555653000,29.154653076171876,-0.1426849365234375,995.3791809082031
1776870477559528200,30.158528076171876,-0.1321258544921875,995.3781890869141
1776870478563401000,31.16240087890625,-0.1426849365234375,995.3791809082031
1776870479565756200,32.16475610351562,-0.1321258544921875,995.3781890869141
1776870480567863000,33.16686303710937,-0.08984375,995.3731536865234
1776870481571218000,34.17021801757812,-0.0792694091796875,995.3719329833984
1776870482575046100,35.17404614257813,-0.0792694091796875,995.3717803955078
1776870483578861000,36.177861083984375,-0.0792694091796875,995.3717803955078
1776870484582650000,37.18165014648437,-0.0924835205078125,995.3734588623047
1776870485586501000,38.185501220703124,-0.11627197265625,995.3762817382812
1776870486590351000,39.18935107421875,-0.103057861328125,995.3746795654297
1776870487593220000,40.19222021484375,-0.11627197265625,995.3762817382812
1776870488596797000,41.195796875,-0.1136322021484375,995.3760528564453
1776870489600645000,42.19964501953125,-0.129486083984375,995.3777313232422
1776870490604570000,43.203570068359376,-0.1136322021484375,995.3760528564453
1776870491607218000,44.206218017578124,-0.129486083984375,995.3777313232422
1776870492608954000,45.2079541015625,-0.1136322021484375,995.3759002685547
1776870493612990200,46.211990234375,-0.11627197265625,995.3762054443359
1776870494616535300,47.21553540039063,-0.1056976318359375,995.3749847412109
1776870495620067000,48.219067138671875,-0.0924835205078125,995.3734588623047
1776870496623894000,49.22289404296875,-0.0924835205078125,995.3734588623047
1776870497627714000,50.22671411132813,-0.11627197265625,995.3762054443359
1776870498631590100,51.230590087890626,-0.1374053955078125,995.3787994384766
1776870499635336200,52.23433618164062,-0.203460693359375,995.3866577148438
1776870500639157000,53.23815698242188,-0.2272491455078125,995.3895568847656
1776870501642976000,54.24197607421875,-0.2272491455078125,995.3895568847656
1776870502646795000,55.245794921875,-0.224609375,995.3889465332031
1776870503650620000,56.249619873046875,-0.211395263671875,995.3874969482422
1776870504654452000,57.253451904296874,-0.1426849365234375,995.3791809082031
1776870505658284300,58.2572841796875,-0.1374053955078125,995.3787994384766
1776870506662120200,59.2611201171875,-0.084564208984375,995.3725433349609
1776870507665949200,60.26494921875,-0.07135009765625,995.3709411621094
1776870508669791000,61.268791015625,-0.084564208984375,995.3725433349609
1776870509673620000,62.27261987304688,-0.08984375,995.3733062744141
1776870510677754000,63.27675415039062,-0.08984375,995.3733062744141
1776870511681305000,64.28030517578125,-0.08984375,995.3730773925781
1776870512685136100,65.28413623046875,-0.08984375,995.3730773925781
1776870513688992000,66.28799194335937,-0.10833740234375,995.3752899169922
1776870514692833300,67.29183325195312,-0.121551513671875,995.3769683837891
1776870515696692000,68.29569189453125,-0.1268310546875,995.3775024414062
1776870516700525000,69.29952514648437,-0.147979736328125,995.3799438476562
1776870517704362200,70.3033623046875,-0.1876068115234375,995.3846740722656
1776870518708201200,71.307201171875,-0.2008209228515625,995.3863525390625
1776870519712046000,72.31104614257812,-0.2008209228515625,995.3863525390625
1776870520715885000,73.31488500976562,-0.1955413818359375,995.3855133056641
1776870521719731200,74.31873120117187,-0.1955413818359375,995.3855133056641
1776870522723570200,75.32257006835937,-0.1955413818359375,995.3855133056641
1776870523727423200,76.32642333984376,-0.19024658203125,995.3849792480469
1776870524731262200,77.33026220703125,-0.19024658203125,995.3849792480469
1776870525735102200,78.33410229492188,-0.211395263671875,995.3876495361328
1776870526738950000,79.33794995117188,-0.2166748046875,995.38818359375
1776870527742809000,80.34180908203125,-0.211395263671875,995.3876495361328
1776870528746637000,81.34563696289062,-0.211395263671875,995.3875732421875
1776870529750485200,82.3494853515625,-0.1955413818359375,995.3855133056641
1776870530754335200,83.35333520507812,-0.211395263671875,995.3875732421875
1776870531758189300,84.35718920898438,-0.224609375,995.3889465332031
1776870532762119200,85.361119140625,-0.224609375,995.3889465332031
1776870533765885200,86.36488525390625,-0.224609375,995.3889465332031
1776870534769741000,87.36874096679688,-0.2166748046875,995.3881072998047
1776870535773592000,88.37259204101562,-0.2272491455078125,995.389404296875
1776870536777444000,89.37644409179687,-0.2166748046875,995.3881072998047
1776870537781299200,90.38029931640625,-0.2193145751953125,995.3884887695312
1776870538785152300,91.38415234375,-0.203460693359375,995.3866577148438
1776870539789001000,92.3880009765625,-0.1955413818359375,995.3856658935547
1776870540792850000,93.39184985351562,-0.1796875,995.3838348388672
1776870541796718000,94.39571801757812,-0.1109771728515625,995.3755187988281
1776870542800482000,95.39948193359375,-0.08984375,995.3731536865234
1776870543804340200,96.40334033203125,0.0131988525390625,995.3607940673828
1776870544808194000,97.40719409179688,0.095123291015625,995.3513336181641
1776870545812069000,98.41106909179688,0.1743927001953125,995.341796875
